Stage,Cross-sectional Area,Hydraulic Radius,Top Width,Wetted Perimeter
-65.47000000000003,0.002483999999994936,0.004994381755322142,0.496799999999439,0.4973588567489703
-65.46000000000004,0.00993599999998088,0.009988763510644285,0.9935999999989917,0.9947177134980543
-65.45000000000005,0.022355999999956126,0.014983145265966424,1.4903999999984308,1.4920765702470247
-65.44000000000005,0.03974399999992125,0.01997752702128857,1.9871999999978698,1.9894354269959948
-65.43000000000006,0.06209999999987908,0.02497190877661071,2.4839999999974225,2.4867942837450787
-65.42000000000007,0.0894239999998245,0.029966290531932848,2.9807999999968615,2.9841531404940493
-65.41000000000008,0.12171599999975981,0.03496067228725499,3.4775999999963005,3.4815119972430195
-65.40000000000009,0.158975999999685,0.03995505404257714,3.9743999999957396,3.9788708539919897
-65.3900000000001,0.20120399999960517,0.04494943579789928,4.471199999995292,4.476229710741074
-65.38000000000011,0.24839999999951062,0.04994381755322142,4.967999999994731,4.973588567490044
-65.37000000000012,0.34186399999889716,0.03549647003048834,9.62479999999357,9.630929489756758
-65.36000000000013,0.4408959999987352,0.04327486238276397,10.181599999993182,10.188270412024245
-65.35000000000014,0.5454959999985699,0.050764538473280336,10.738399999992794,10.745611334291732
-65.34000000000015,0.655663999998398,0.05800820751214825,11.29519999999252,11.302952256559331
-65.33000000000015,0.7713999999982154,0.06504055071550262,11.851999999992131,11.860293178826819
-65.32000000000016,0.8927039999980239,0.07189002290857921,12.408799999991743,12.417634101094304
-65.31000000000017,1.0195759999978273,0.07858018980090863,12.965599999991468,12.974975023361905
-65.30000000000018,1.1520159999976185,0.08513073480003189,13.52239999999108,13.532315945629392
-65.29000000000019,1.290023999997406,0.09155822686758969,14.079199999990806,14.089656867896991
-65.2800000000002,1.4335999999971798,0.0978767130667452,14.635999999990418,14.64699779016448
-65.27000000000021,1.5807630909061083,0.10674218102231786,14.796618181815234,14.809169868616413
-65.26000000000022,1.7295323636332158,0.11552286827385402,14.957236363633228,14.971341947061543
-65.25000000000023,1.8799078181785032,0.12422150037393904,15.117854545451337,15.133514025506788
-65.24000000000024,2.031889454541968,0.13284068728482812,15.278472727269332,15.29568610395192
-65.23000000000025,2.1854772727236114,0.14138292944182707,15.439090909087327,15.457858182397052
-65.22000000000025,2.3406712727234362,0.14985062343901104,15.599709090905435,15.620030260842295
-65.21000000000026,2.4974714545414374,0.15824606736439797,15.76032727272343,15.782202339287426
-65.20000000000027,2.655877818177621,0.16657146580952492,15.920945454541538,15.94437441773267
-65.19000000000028,2.8158903636319796,0.1748289345763979,16.081563636359533,16.106546496177803
-65.18000000000029,2.9775090909045163,0.18302050510290588,16.242181818177528,16.268718574622934
-65.1700000000003,3.1407339999952377,0.19114812862617164,16.402799999995636,16.43089065306818
-65.16000000000031,3.3055650909041323,0.1992136801017602,16.56341818181363,16.593062731513314
-65.15000000000032,3.4720023636312125,0.20721896189527655,16.72403636363174,16.75523480995855
-65.14000000000033,3.6400458181764646,0.21516570726164858,16.884654545449735,16.917406888403686
-65.13000000000034,3.8096954545398947,0.2230555836261802,17.04527272726773,17.079578966848818
-65.12000000000035,3.9809512727215126,0.2308901956804479,17.205890909085838,17.24175104529406
-65.11000000000035,4.153813272721301,0.23867108830510989,17.366509090903833,17.403923123739194
-65.10000000000036,4.328281454539277,0.2463997493308036,17.52712727272194,17.566095202184435
-65.09000000000037,4.504355818175401,0.2540776121475234,17.687745454539822,17.728267280629456
-65.08000000000038,4.682036363629725,0.2617060581720621,17.848363636357817,17.89043935907459
-65.07000000000039,4.861323090902238,0.2692864191824712,18.008981818175926,18.05261143751983
-65.0600000000004,5.042215999992918,0.27681997952781034,18.16959999999392,18.214783515964964
-65.05000000000041,5.224715090901792,0.2843079782208874,18.33021818181203,18.37695559441021
-65.04000000000042,5.4088203636288315,0.29175161092117247,18.490836363630024,18.539127672855336
-65.03000000000043,5.594531818174047,0.2991520318145271,18.65145454544802,18.70129975130047
-65.02000000000044,5.781849454537457,0.3065103553959822,18.812072727266127,18.863471829745713
-65.01000000000045,5.970773272719032,0.31382765816133656,18.972690909084122,19.025643908190844
-65.00000000000045,6.1613032727188015,0.32110498021296535,19.13330909090223,19.18781598663609
-64.99000000000046,6.353439454536734,0.3283433267848926,19.293927272720225,19.34998806508122
-64.98000000000047,6.547181818172844,0.3355436696917965,19.45454545453822,19.512160143526355
-64.97000000000048,6.742530363627151,0.3427069487063623,19.61516363635633,19.674332221971596
-64.96000000000049,6.939485090899619,0.34983407286907064,19.775781818174323,19.836504300416728
-64.9500000000005,7.138045999990283,0.35692592173425003,19.93639999999243,19.998676378861973
-64.94000000000051,7.338213090899111,0.363983346556005,20.097018181810427,20.160848457307104
-64.93000000000052,7.539986363626114,0.37100717141734807,20.25763636362842,20.323020535752235
-64.92000000000053,7.743365818171317,0.37799819430571013,20.41825454544653,20.48519261419748
-64.91000000000054,7.948351454534678,0.38495718813776547,20.578872727264525,20.64736469264261
-64.90000000000055,8.154943272716242,0.39188490173632673,20.739490909082633,20.809536771087856
-64.89000000000055,8.36314127271596,0.3987820607619296,20.900109090900628,20.971708849532988
-64.88000000000056,8.572945454533858,0.4056493686015119,21.060727272718623,21.13388092797812
-64.87000000000057,8.784355818169958,0.4124875072164969,21.22134545453673,21.296053006423364
-64.86000000000058,8.997372363624178,0.4192971379524219,21.381963636354612,21.45822508486838
-64.85000000000059,9.211995090896636,0.42607890231211504,21.54258181817272,21.620397163313626
-64.8400000000006,9.428223999987248,0.4328334226943561,21.703199999990716,21.782569241758758
-64.83000000000061,9.646059090896038,0.43956130309976316,21.86381818180871,21.94474132020389
-64.82000000000062,9.865500363623033,0.4462631298056234,22.02443636362682,22.106913398649134
-64.81000000000063,10.086547818168182,0.452939472011237,22.185054545444814,22.26908547709426
-64.80000000000064,10.309201454531536,0.45959088245525626,22.345672727262922,22.431257555539506
-64.79000000000065,10.53346127271304,0.46621789800645375,22.506290909080917,22.59342963398464
-64.78000000000065,10.759327272712726,0.4728210402292139,22.666909090898912,22.755601712429772
-64.77000000000066,10.986799454530617,0.47940081592502415,22.82752727271702,22.917773790875017
-64.76000000000067,11.21587781816666,0.4859577176511393,22.988145454535015,23.07994586932015
-64.75000000000068,11.44656236362091,0.4924922242175197,23.148763636353124,23.242117947765387
-64.74000000000069,11.678853090893309,0.4990048011631257,23.30938181817112,23.404290026210525
-64.7300000000007,11.912749999983888,0.5054959012125317,23.469999999989113,23.566462104655653
-64.72000000000071,12.148253090892677,0.5119659647138242,23.630618181807222,23.728634183100898
-64.71000000000072,12.38536236361961,0.5184154200586667,23.791236363625217,23.890806261546032
-64.70000000000073,12.624077818164759,0.5248446840853614,23.951854545443325,24.05297833999127
-64.69000000000074,12.864399454528051,0.5312541624657279,24.11247272726132,24.215150418436405
-64.68000000000075,13.106327272709523,0.5376442500765268,24.273090909079315,24.37732249688154
-64.67000000000075,13.349861272709207,0.5440153313561649,24.433709090897423,24.539494575326778
-64.66000000000076,13.595001454527036,0.5503677806473474,24.594327272715418,24.701666653771916
-64.65000000000077,13.841747818163078,0.5567019625263143,24.754945454533527,24.863838732217157
-64.64000000000078,14.090100363617267,0.5630182321192879,24.91556363635152,25.026010810662285
-64.63000000000079,14.34005909088963,0.5693169354066807,25.076181818169516,25.188182889107424
-64.6200000000008,14.59162399998021,0.5755984095156398,25.236799999987625,25.35035496755266
-64.61000000000081,14.844795090888887,0.5818629830014306,25.397418181805506,25.512527045997683
-64.60000000000082,15.099572363615826,0.5881109761181456,25.558036363623614,25.674699124442924
-64.59000000000083,15.355955818160904,0.5943427010792394,25.71865454544161,25.836871202888055
-64.58000000000084,15.613945454524163,0.6005584623082909,25.879272727259604,25.99904328133319
-64.57000000000085,15.873541272705639,0.6067585566804522,26.039890909077712,26.16121535977843
-64.56000000000085,16.134743272705254,0.6129432737549719,26.200509090895707,26.323387438223563
-64.55000000000086,16.39755145452309,0.6191128959991657,26.361127272713816,26.485559516668808
-64.54000000000087,16.661965818159064,0.6252676990042244,26.52174545453181,26.64773159511394
-64.53000000000088,16.927986363613215,0.6314079516931732,26.682363636349805,26.809903673559074
-64.52000000000089,17.195613090885587,0.6375339165213403,26.842981818167914,26.972075752004315
-64.5100000000009,17.4648459999761,0.6436458496696356,27.00359999998591,27.134247830449446
-64.50000000000091,17.735685090884832,0.6497440012309292,27.164218181804017,27.29641990889469
-64.49000000000092,18.008130363611695,0.6558286153898424,27.324836363622012,27.458591987339823
-64.48000000000093,18.28218181815674,0.6618999305961878,27.485454545440007,27.620764065784954
-64.47000000000094,18.55783945452001,0.6679581797323462,27.646072727258115,27.7829361442302
-64.46000000000095,18.835103272701414,0.6740035902748145,27.80669090907611,27.94510822267533
-64.45000000000095,19.113973272701042,0.6800363844501529,27.96730909089422,28.107280301120575
-64.44000000000096,19.394449454518803,0.6860567793855776,28.127927272712213,28.269452379565706
-64.43000000000097,19.67653181815474,0.6920649872543853,28.288545454530208,28.431624458010837
-64.42000000000098,19.960220363608908,0.6980612154164394,28.449163636348317,28.593796536456082
-64.41000000000099,20.245515090881202,0.7040456665539017,28.60978181816631,28.755968614901214
-64.400000000001,20.53241599997173,0.7100185388023881,28.77039999998442,28.918140693346455
-64.39000000000101,20.82092309088038,0.7159800258777491,28.931018181802415,29.08031277179159
-64.38000000000102,21.111036363607212,0.7219303171986192,29.09163636362041,29.24248485023672
-64.37000000000103,21.402755818152276,0.7278695980049182,29.252254545438518,29.404656928681966
-64.36000000000104,21.6960814545154,0.7337980494724555,29.4128727272564,29.566829007126984
-64.35000000000105,21.991013272696822,0.7397158488237694,29.573490909074508,29.72900108557223
-64.34000000000106,22.287551272696373,0.7456231694353791,29.734109090892503,29.89117316401736
-64.33000000000106,22.585695454514095,0.7515201809415438,29.894727272710497,30.05334524246249
-64.32000000000107,22.885445818150053,0.7574070493346936,30.055345454528606,30.215517320907736
-64.31000000000108,23.186802363604137,0.7632839370626419,30.2159636363466,30.377689399352867
-64.30000000000109,23.489765090876453,0.7691510031226914,30.37658181816471,30.53986147779811
-64.2900000000011,23.794333999966895,0.7750084031527719,30.537199999982704,30.702033556243244
-64.28000000000111,24.100509090875516,0.7808562895196914,30.6978181818007,30.86420563468837
-64.27000000000112,24.408290363602372,0.7866948114046269,30.858436363618807,31.026377713133616
-64.26000000000113,24.717677818147344,0.7925241148859504,31.019054545436802,31.18854979157875
-64.25000000000114,25.028671454510558,0.798344343019474,31.17967272725491,31.35072187002399
-64.24000000000115,25.341271272691888,0.8041556359162294,31.340290909072905,31.512893948469127
-64.23000000000116,25.655477272691403,0.8099581308178484,31.5009090908909,31.67506602691426
-64.22000000000116,25.971289454509158,0.8157519621696436,31.66152727270901,31.837238105359496
-64.21000000000117,26.288707818145024,0.8215372616914708,31.822145454527003,31.999410183804635
-64.20000000000118,26.607732363599133,0.8273141584464376,31.982763636345112,32.16158226224988
-64.19000000000119,26.928363090871365,0.8330827789075559,32.14338181816311,32.323754340695004
-64.1800000000012,27.25059999996177,0.8388432470223842,32.3039999999811,32.48592641914014
-64.17000000000121,27.574443090870414,0.8445956842757563,32.46461818179921,32.64809849758538
-64.16000000000122,27.89989236359718,0.8503402097506442,32.625236363617205,32.81027057603052
-64.15000000000123,28.22694781814219,0.8560769401872201,32.78585454543531,32.972442654475756
-64.14000000000124,28.555609454505305,0.8618059900401946,32.94647272725331,33.13461473292089
-64.13000000000125,28.885877272686606,0.8675274715344685,33.1070909090713,33.296786811366026
-64.12000000000126,29.21775127268615,0.873241494719173,33.26770909088941,33.458958889811264
-64.11000000000126,29.551231454503732,0.8789481675201473,33.42832727270729,33.62113096825628
-64.10000000000127,29.88631781813963,0.884647595790892,33.5889454545254,33.78330304670153
-64.09000000000128,30.223010363593648,0.8903398833620855,33.749563636343396,33.94547512514666
-64.08000000000129,30.56130909086584,0.8960251320896594,33.91018181816139,34.107647203591796
-64.0700000000013,30.90121399995628,0.901703441901532,34.0707999999795,34.269819282037034
-64.06000000000131,31.24272509086483,0.9073749108430108,34.231418181797494,34.43199136048217
-64.05000000000132,31.58584236359163,0.9130396351209165,34.3920363636156,34.59416343892741
-64.04000000000133,31.930565818136532,0.9186977091464783,34.5526545454336,34.75633551737254
-64.03000000000134,32.276895454499616,0.9243492255770275,34.71327272725159,34.91850759581767
-64.02000000000135,32.62483127268096,0.9299942753565376,34.8738909090697,35.08067967426292
-64.01000000000136,32.974373272680396,0.9356329477550481,35.034509090887695,35.24285175270805
-64.00000000000136,33.32552145449809,0.9412653304069964,35.195127272705804,35.405023831153294
-63.99000000000137,33.6782758181339,0.9468915093485126,35.3557454545238,35.567195909598425
-63.98000000000138,34.03263636358787,0.952511569053685,35.516363636341794,35.729367988043556
-63.97000000000139,34.38860309086011,0.9581255924698546,35.6769818181599,35.8915400664888
-63.9600000000014,34.746175999950445,0.9637336610519531,35.8375999999779,36.05371214493393
-63.95000000000141,35.105355090859035,0.9693358547959119,35.998218181796005,36.21588422337918
-63.94000000000142,35.46614036358573,0.97493225227119,36.158836363614,36.37805630182431
-63.93000000000143,35.8285318181306,0.9805229306524221,36.319454545431995,36.54022838026944
-63.92000000000144,36.19252945449374,0.986107965750238,36.4800727272501,36.702400458714685
-63.910000000001446,36.558133272674965,0.9916874320412652,36.6406909090681,36.864572537159816
-63.900000000001455,36.92534327267445,0.9972614026973393,36.80130909088621,37.026744615605054
-63.890000000001464,37.29415945449204,1.002829949613958,36.9619272727042,37.18891669405019
-63.88000000000147,37.66458181812781,1.0083931434379856,37.1225454545222,37.351088772495324
-63.87000000000148,38.036610363581744,1.013951053594643,37.28316363634019,37.513260850940455
-63.86000000000149,38.41024509085386,1.0195037483138023,37.443781818158186,37.675432929385586
-63.8500000000015,38.78548599994425,1.0250512946556012,37.604399999976295,37.83760500783083
-63.84000000000151,39.16233309085273,1.0305937585354055,37.76501818179429,37.99977708627596
-63.83000000000152,39.540786363579386,1.0361312047481306,37.925636363612284,38.16194916472109
-63.82000000000153,39.92084581812431,1.0416636969919486,38.08625454543039,38.32412124316633
-63.81000000000154,40.30251145448733,1.0471912978913973,38.24687272724839,38.48629332161147
-63.800000000001546,40.6857832726686,1.0527140690199022,38.407490909066496,38.64846540005671
-63.790000000001555,41.070661272667984,1.058232070921742,38.56810909088449,38.810637478501846
-63.780000000001564,41.457145454485534,1.0637453631334546,38.728727272702486,38.97280955694698
-63.77000000000157,41.84523581812135,1.069254004204721,38.889345454520594,39.13498163539222
-63.76000000000158,42.23493236357527,1.0747580517187294,39.04996363633859,39.29715371383735
-63.75000000000159,42.626235090847445,1.0802575623120307,39.2105818181567,39.4593257922826
-63.7400000000016,43.01914399993772,1.085752591693919,39.37119999997469,39.62149787072772
-63.73000000000161,43.41365909084615,1.0912431946653218,39.53181818179269,39.78366994917286
-63.72000000000162,43.80978036357287,1.0967294251372468,39.692436363610796,39.9458420276181
-63.71000000000163,44.207507818117676,1.10221133614877,39.85305454542879,40.10801410606324
-63.70000000000164,44.60684145448075,1.1076889798845913,40.0136727272469,40.270186184508475
-63.690000000001646,45.00778127266191,1.1131624076921716,40.174290909064894,40.43235826295361
-63.680000000001655,45.410327272661256,1.1186316700984547,40.33490909088289,40.59453034139874
-63.670000000001664,45.81447945447886,1.124096816826189,40.495527272701,40.75670241984399
-63.66000000000167,46.22023781811457,1.1295578968098723,40.65614545451899,40.918874498289114
-63.65000000000168,46.62760236356853,1.1350149582112976,40.8167636363371,41.081046576734366
-63.64000000000169,47.036573090840584,1.1404680484347587,40.977381818155095,41.24321865517949
-63.6300000000017,47.44714999993082,1.145917214141872,41.13799999997309,41.40539073362463
-63.62000000000171,47.85933309083922,1.1513625012660729,41.298618181791085,41.56756281206975
-63.61000000000172,48.27312236356582,1.1568039550267604,41.45923636360908,41.72973489051489
-63.60000000000173,48.68851781811068,1.1622416199431196,41.61985454542719,41.89190696896013
-63.59000000000174,49.10551945447364,1.1676755398476248,41.78047272724518,42.05407904740527
-63.580000000001746,49.52412727265475,1.1731057578992254,41.94109090906318,42.21625112585039
-63.570000000001755,49.94434127265416,1.1785323165962345,42.101709090881286,42.378423204295636
-63.560000000001764,50.36616145447164,1.183955257788924,42.26232727269928,42.54059528274077
-63.55000000000177,50.78958781810741,1.1893746226918254,42.42294545451739,42.70276736118601
-63.54000000000178,51.21462036356125,1.1947904518957593,42.583563636335384,42.864939439631144
-63.53000000000179,51.64125909083327,1.2002027853795874,42.74418181815338,43.027111518076275
-63.5200000000018,52.06950399992356,1.2056116625217015,42.90479999997149,43.18928359652152
-63.51000000000181,52.49935509083194,1.2110171221112596,43.06541818178948,43.35145567496665
-63.50000000000182,52.9308123635586,1.2164192023591576,43.22603636360759,43.513627753411896
-63.49000000000183,53.36387581810334,1.2218179409087742,43.386654545425586,43.67579983185703
-63.48000000000184,53.79854545446626,1.2272133748464606,43.54727272724358,43.83797191030216
-63.470000000001846,54.23482127264745,1.232605540711809,43.70789090906169,44.0001439887474
-63.460000000001855,54.672703272646714,1.237994474507694,43.868509090879684,44.162316067192535
-63.450000000001864,55.112191454464174,1.2433802117100863,44.02912727269768,44.324488145637666
-63.440000000001874,55.55328581809991,1.2487627872776583,44.18974545451579,44.48666022408291
-63.43000000000188,55.99598636355372,1.2541422356611818,44.35036363633378,44.64883230252805
-63.42000000000189,56.440293090825804,1.2595185908127136,44.51098181815189,44.81100438097329
-63.4100000000019,56.88620599991597,1.2648918861945917,44.671599999969885,44.97317645941842
-63.40000000000191,57.33372509082443,1.270262154788229,44.832218181787994,45.13534853786366
-63.39000000000192,57.78285036355094,1.275629429102726,44.99283636360599,45.297520616308795
-63.38000000000193,58.233581818095644,1.280993741183293,45.15345454542398,45.459692694753926
-63.37000000000194,58.685919454458514,1.2863551226194956,45.31407272724198,45.62186477319905
-63.360000000001946,59.13986327263957,1.2917136045533248,45.47469090905997,45.78403685164419
-63.350000000001955,59.59541327263892,1.2970692176870953,45.63530909087808,45.946208930089426
